# sky background 0.3-1.0um
# DARKEST optical sky - 20%ile conditions (day 3)
#AM=1.0
#
#derived from sky spectrum with constant slope to match assumed photometric background
#increasingly poor model at very bright sky (day14);  patched to near-IR background at 920nm
#
#1 March 2001 : Phil Puxley

#nm         phot/s/nm/arcsec^2/m^2
200.00                    0.0000
300.00                    0.0000
349.99                    0.0000
350.17                    0.3103
350.43                    0.3101
350.70                    0.3099
350.96                    0.3097
351.23                    0.3095
351.49                    0.3093
351.76                    0.3091
352.02                    0.3088
352.29                    0.3086
352.55                    0.3084
352.82                    0.3082
353.08                    0.3080
353.35                    0.3078
353.62                    0.3076
353.88                    0.3074
354.15                    0.3071
354.41                    0.3069
354.68                    0.3067
354.94                    0.3065
355.21                    0.3063
355.47                    0.3061
355.74                    0.3059
356.00                    0.3056
356.27                    0.3054
356.53                    0.3052
356.80                    0.3050
357.07                    0.3048
357.33                    0.3046
357.60                    0.3044
357.86                    0.3042
358.13                    0.3039
358.39                    0.3037
358.66                    0.3035
358.92                    0.3033
359.19                    0.3031
359.45                    0.3029
359.72                    0.3027
359.98                    0.3024
360.25                    0.3022
360.51                    0.3020
360.78                    0.3018
361.05                    0.3016
361.31                    0.3014
361.58                    0.3012
361.84                    0.3010
362.11                    0.3007
362.37                    0.3005
362.64                    0.3003
362.90                    0.3001
363.17                    0.2999
363.43                    0.2997
363.70                    0.2995
363.96                    0.2993
364.23                    0.2990
364.49                    0.2988
364.76                    0.2986
365.03                    0.2984
365.29                    0.2982
365.56                    0.2980
365.82                    0.2978
366.09                    0.2975
366.35                    0.2973
366.62                    0.2971
366.88                    0.2969
367.15                    0.2967
367.41                    0.2965
367.68                    0.2963
367.94                    0.2961
368.21                    0.2958
368.47                    0.2956
368.74                    0.2954
369.01                    0.2952
369.27                    0.2950
369.54                    0.2948
369.80                    0.2946
370.07                    0.2943
370.33                    0.2941
370.60                    0.2939
370.86                    0.2937
371.13                    0.2935
371.39                    0.2933
371.66                    0.2931
371.92                    0.2929
372.19                    0.2926
372.45                    0.2924
372.72                    0.2922
372.99                    0.2920
373.25                    0.2918
373.52                    0.2916
373.78                    0.2914
374.05                    0.2912
374.31                    0.2909
374.58                    0.2907
374.84                    0.2905
375.11                    0.2903
375.37                    0.2901
375.64                    0.2899
375.90                    0.2897
376.17                    0.2894
376.43                    0.2892
376.70                    0.2890
376.97                    0.2888
377.23                    0.2886
377.50                    0.2884
377.76                    0.2882
378.03                    0.2880
378.29                    0.2877
378.56                    0.2875
378.82                    0.2873
379.09                    0.2871
379.35                    0.2869
379.62                    0.2867
379.88                    0.2865
380.15                    0.2862
380.41                    0.2860
380.68                    0.2858
380.95                    0.2856
381.21                    0.2854
381.48                    0.2852
381.74                    0.2850
382.01                    0.2848
382.27                    0.2845
382.54                    0.2843
382.80                    0.2841
383.07                    0.2839
383.33                    0.2837
383.60                    0.2835
383.86                    0.2833
384.13                    0.2831
384.40                    0.2828
384.66                    0.2826
384.93                    0.2824
385.19                    0.2822
385.46                    0.2820
385.72                    0.2818
385.99                    0.2816
386.25                    0.2814
386.52                    0.2812
386.78                    0.2810
387.05                    0.2808
387.31                    0.2806
387.58                    0.2804
387.84                    0.2802
388.11                    0.2800
388.38                    0.2798
388.64                    0.2796
388.91                    0.2794
389.17                    0.2792
389.44                    0.2790
389.70                    0.2788
389.97                    0.2786
390.23                    0.2785
390.50                    0.2783
390.76                    0.2781
391.03                    0.2780
391.29                    0.2778
391.56                    0.2776
391.82                    0.2775
392.09                    0.2773
392.36                    0.2771
392.62                    0.2770
392.89                    0.2768
393.15                    0.2766
393.42                    0.2764
393.68                    0.2763
393.95                    0.2761
394.21                    0.2759
394.48                    0.2758
394.74                    0.2756
395.01                    0.2754
395.27                    0.2753
395.54                    0.2751
395.80                    0.2749
396.07                    0.2747
396.34                    0.2746
396.60                    0.2744
396.87                    0.2742
397.13                    0.2740
397.40                    0.2739
397.66                    0.2737
397.93                    0.2735
398.19                    0.2733
398.46                    0.2732
398.72                    0.2730
398.99                    0.2728
399.25                    0.2726
399.52                    0.2725
399.78                    0.2723
400.05                    0.2720
400.32                    0.2719
400.58                    0.2717
400.85                    0.2716
401.11                    0.2714
401.38                    0.2712
401.64                    0.2710
401.91                    0.2708
402.17                    0.2706
402.44                    0.2705
402.70                    0.2703
402.97                    0.2701
403.23                    0.2699
403.50                    0.2697
403.76                    0.2696
404.03                    0.2694
404.30                    0.2692
404.56                    0.2690
404.83                    0.2688
405.09                    0.2687
405.36                    0.2685
405.62                    0.2683
405.89                    0.2682
406.15                    0.2680
406.42                    0.2678
406.68                    0.2676
406.95                    0.2675
407.21                    0.2673
407.48                    0.2671
407.74                    0.2670
408.01                    0.2668
408.28                    0.2666
408.54                    0.2665
408.81                    0.2663
409.07                    0.2662
409.34                    0.2660
409.60                    0.2659
409.87                    0.2657
410.13                    0.2656
410.40                    0.2654
410.66                    0.2653
410.93                    0.2652
411.19                    0.2650
411.46                    0.2649
411.73                    0.2648
411.99                    0.2646
412.26                    0.2645
412.52                    0.2644
412.79                    0.2642
413.05                    0.2641
413.32                    0.2640
413.58                    0.2638
413.85                    0.2637
414.11                    0.2635
414.38                    0.2634
414.64                    0.2633
414.91                    0.2631
415.17                    0.2630
415.44                    0.2628
415.71                    0.2627
415.97                    0.2626
416.24                    0.2624
416.50                    0.2623
416.77                    0.2621
417.03                    0.2620
417.30                    0.2618
417.56                    0.2617
417.83                    0.2615
418.09                    0.2614
418.36                    0.2612
418.62                    0.2611
418.89                    0.2609
419.15                    0.2608
419.42                    0.2606
419.69                    0.2604
419.95                    0.2603
420.22                    0.2601
420.48                    0.2599
420.75                    0.2597
421.01                    0.2596
421.28                    0.2594
421.54                    0.2592
421.81                    0.2590
422.07                    0.2588
422.34                    0.2587
422.60                    0.2585
422.87                    0.2583
423.13                    0.2581
423.40                    0.2579
423.67                    0.2578
423.93                    0.2576
424.20                    0.2574
424.46                    0.2572
424.73                    0.2570
424.99                    0.2569
425.26                    0.2567
425.52                    0.2565
425.79                    0.2563
426.05                    0.2562
426.32                    0.2560
426.58                    0.2558
426.85                    0.2556
427.11                    0.2555
427.38                    0.2553
427.65                    0.2551
427.91                    0.2549
428.18                    0.2548
428.44                    0.2546
428.71                    0.2544
428.97                    0.2543
429.24                    0.2541
429.50                    0.2539
429.77                    0.2538
430.03                    0.2536
430.30                    0.2534
430.56                    0.2533
430.83                    0.2531
431.09                    0.2530
431.36                    0.2528
431.63                    0.2527
431.89                    0.2525
432.16                    0.2524
432.42                    0.2522
432.69                    0.2520
432.95                    0.2519
433.22                    0.2517
433.48                    0.2516
433.75                    0.2514
434.01                    0.2513
434.28                    0.2511
434.54                    0.2510
434.81                    0.2508
435.07                    0.2507
435.34                    0.2505
435.61                    0.2504
435.87                    0.2502
436.14                    0.2501
436.40                    0.2499
436.67                    0.2498
436.93                    0.2497
437.20                    0.2495
437.46                    0.2494
437.73                    0.2492
437.99                    0.2491
438.26                    0.2490
438.52                    0.2488
438.79                    0.2487
439.05                    0.2486
439.32                    0.2484
439.59                    0.2483
439.85                    0.2482
440.12                    0.2481
440.38                    0.2480
440.65                    0.2479
440.91                    0.2478
441.18                    0.2477
441.44                    0.2476
441.71                    0.2475
441.97                    0.2474
442.24                    0.2473
442.50                    0.2471
442.77                    0.2470
443.04                    0.2469
443.30                    0.2468
443.57                    0.2467
443.83                    0.2466
444.10                    0.2465
444.36                    0.2464
444.63                    0.2463
444.89                    0.2462
445.16                    0.2461
445.42                    0.2460
445.69                    0.2458
445.95                    0.2457
446.22                    0.2456
446.48                    0.2455
446.75                    0.2454
447.02                    0.2453
447.28                    0.2451
447.55                    0.2450
447.81                    0.2449
448.08                    0.2448
448.34                    0.2447
448.61                    0.2445
448.87                    0.2444
449.14                    0.2443
449.40                    0.2441
449.67                    0.2440
449.93                    0.2439
450.20                    0.2437
450.46                    0.2436
450.73                    0.2434
451.00                    0.2433
451.26                    0.2431
451.53                    0.2430
451.79                    0.2428
452.06                    0.2427
452.32                    0.2425
452.59                    0.2424
452.85                    0.2422
453.12                    0.2421
453.38                    0.2419
453.65                    0.2418
453.91                    0.2416
454.18                    0.2415
454.44                    0.2413
454.71                    0.2412
454.98                    0.2411
455.24                    0.2409
455.51                    0.2408
455.77                    0.2406
456.04                    0.2405
456.30                    0.2403
456.57                    0.2402
456.83                    0.2400
457.10                    0.2399
457.36                    0.2397
457.63                    0.2396
457.89                    0.2395
458.16                    0.2393
458.42                    0.2392
458.69                    0.2390
458.96                    0.2389
459.22                    0.2388
459.49                    0.2386
459.75                    0.2385
460.02                    0.2383
460.28                    0.2382
460.55                    0.2381
460.81                    0.2380
461.08                    0.2378
461.34                    0.2377
461.61                    0.2376
461.87                    0.2374
462.14                    0.2373
462.40                    0.2372
462.67                    0.2371
462.94                    0.2369
463.20                    0.2368
463.47                    0.2367
463.73                    0.2366
464.00                    0.2365
464.26                    0.2363
464.53                    0.2362
464.79                    0.2361
465.06                    0.2360
465.32                    0.2358
465.59                    0.2357
465.85                    0.2356
466.12                    0.2355
466.38                    0.2354
466.65                    0.2353
466.92                    0.2351
467.18                    0.2350
467.45                    0.2349
467.71                    0.2348
467.98                    0.2347
468.24                    0.2346
468.51                    0.2345
468.77                    0.2344
469.04                    0.2343
469.30                    0.2342
469.57                    0.2341
469.83                    0.2340
470.10                    0.2340
470.37                    0.2339
470.63                    0.2338
470.90                    0.2338
471.16                    0.2337
471.43                    0.2336
471.69                    0.2336
471.96                    0.2335
472.22                    0.2334
472.49                    0.2334
472.75                    0.2333
473.02                    0.2332
473.28                    0.2331
473.55                    0.2331
473.81                    0.2330
474.08                    0.2329
474.35                    0.2329
474.61                    0.2328
474.88                    0.2327
475.14                    0.2326
475.41                    0.2325
475.67                    0.2325
475.94                    0.2324
476.20                    0.2323
476.47                    0.2322
476.73                    0.2321
477.00                    0.2320
477.26                    0.2319
477.53                    0.2318
477.79                    0.2317
478.06                    0.2316
478.33                    0.2315
478.59                    0.2314
478.86                    0.2313
479.12                    0.2312
479.39                    0.2311
479.65                    0.2309
479.92                    0.2308
480.18                    0.2307
480.45                    0.2305
480.71                    0.2304
480.98                    0.2302
481.24                    0.2301
481.51                    0.2299
481.77                    0.2297
482.04                    0.2296
482.31                    0.2294
482.57                    0.2293
482.84                    0.2291
483.10                    0.2290
483.37                    0.2288
483.63                    0.2287
483.90                    0.2285
484.16                    0.2284
484.43                    0.2282
484.69                    0.2280
484.96                    0.2279
485.22                    0.2277
485.49                    0.2276
485.75                    0.2274
486.02                    0.2273
486.29                    0.2271
486.55                    0.2270
486.82                    0.2268
487.08                    0.2267
487.35                    0.2266
487.61                    0.2264
487.88                    0.2263
488.14                    0.2261
488.41                    0.2260
488.67                    0.2258
488.94                    0.2257
489.20                    0.2256
489.47                    0.2254
489.73                    0.2253
490.00                    0.2251
490.27                    0.2250
490.53                    0.2249
490.80                    0.2248
491.06                    0.2247
491.33                    0.2245
491.59                    0.2244
491.86                    0.2243
492.12                    0.2242
492.39                    0.2241
492.65                    0.2239
492.92                    0.2238
493.18                    0.2237
493.45                    0.2236
493.71                    0.2235
493.98                    0.2233
494.25                    0.2232
494.51                    0.2231
494.78                    0.2230
495.04                    0.2229
495.31                    0.2227
495.57                    0.2226
495.84                    0.2225
496.10                    0.2224
496.37                    0.2223
496.63                    0.2221
496.90                    0.2220
497.16                    0.2219
497.43                    0.2218
497.70                    0.2217
497.96                    0.2216
498.23                    0.2214
498.49                    0.2213
498.76                    0.2212
499.02                    0.2211
499.29                    0.2210
499.55                    0.2209
499.82                    0.2208
500.08                    0.2207
500.35                    0.2205
500.61                    0.2204
500.88                    0.2203
501.14                    0.2202
501.41                    0.2201
501.68                    0.2200
501.94                    0.2199
502.21                    0.2198
502.47                    0.2197
502.74                    0.2196
503.00                    0.2195
503.27                    0.2194
503.53                    0.2193
503.80                    0.2192
504.06                    0.2191
504.33                    0.2190
504.59                    0.2189
504.86                    0.2188
505.12                    0.2187
505.39                    0.2186
505.66                    0.2185
505.92                    0.2184
506.19                    0.2183
506.45                    0.2182
506.72                    0.2181
506.98                    0.2180
507.25                    0.2179
507.51                    0.2177
507.78                    0.2176
508.04                    0.2175
508.31                    0.2174
508.57                    0.2173
508.84                    0.2172
509.10                    0.2171
509.37                    0.2170
509.64                    0.2169
509.90                    0.2169
510.17                    0.2168
510.43                    0.2167
510.70                    0.2166
510.96                    0.2170
511.23                    0.2140
511.49                    0.2178
511.76                    0.2198
512.02                    0.2191
512.29                    0.2083
512.55                    0.1956
512.82                    0.1958
513.08                    0.2078
513.35                    0.2150
513.62                    0.2113
513.88                    0.2038
514.15                    0.2057
514.41                    0.2067
514.68                    0.2090
514.94                    0.2048
515.21                    0.2026
515.47                    0.1969
515.74                    0.1942
516.00                    0.1959
516.27                    0.1888
516.53                    0.1829
516.80                    0.1785
517.06                    0.1924
517.33                    0.1985
517.60                    0.2077
517.86                    0.1951
518.13                    0.2007
518.39                    0.2018
518.66                    0.2185
518.92                    0.2128
519.19                    0.2239
519.45                    0.3313
519.72                    0.4592
519.98                    0.4961
520.25                    0.3972
520.51                    0.2730
520.78                    0.2242
521.04                    0.2074
521.31                    0.2050
521.58                    0.2069
521.84                    0.2136
522.11                    0.2259
522.37                    0.2126
522.64                    0.1999
522.90                    0.1907
523.17                    0.1979
523.43                    0.2040
523.70                    0.2092
523.96                    0.2110
524.23                    0.2081
524.49                    0.2025
524.76                    0.1973
525.03                    0.2056
525.29                    0.2097
525.56                    0.2148
525.82                    0.2017
526.09                    0.1862
526.35                    0.1764
526.62                    0.1766
526.88                    0.1868
527.15                    0.2040
527.41                    0.2184
527.68                    0.2224
527.94                    0.2274
528.21                    0.2144
528.47                    0.2012
528.74                    0.1856
529.01                    0.1917
529.27                    0.2008
529.54                    0.2084
529.80                    0.2102
530.07                    0.2106
530.33                    0.2057
530.60                    0.2048
530.86                    0.2209
531.13                    0.2235
531.39                    0.2221
531.66                    0.2038
531.92                    0.2002
532.19                    0.1971
532.45                    0.2057
532.72                    0.2221
532.99                    0.2427
533.25                    0.2339
533.52                    0.2161
533.78                    0.1971
534.05                    0.1975
534.31                    0.2032
534.58                    0.2064
534.84                    0.2025
535.11                    0.1955
535.37                    0.1944
535.64                    0.2019
535.90                    0.2071
536.17                    0.2057
536.43                    0.2004
536.70                    0.1984
536.97                    0.1963
537.23                    0.2044
537.50                    0.2011
537.76                    0.1952
538.03                    0.1809
538.29                    0.1785
538.56                    0.1815
538.82                    0.1940
539.09                    0.1907
539.35                    0.1897
539.62                    0.1829
539.88                    0.1864
540.15                    0.1890
540.41                    0.1873
540.68                    0.1961
540.95                    0.1909
541.21                    0.1996
541.48                    0.1889
541.74                    0.1957
542.01                    0.1830
542.27                    0.1807
542.54                    0.1788
542.80                    0.1842
543.07                    0.1952
543.33                    0.2040
543.60                    0.2036
543.86                    0.2049
544.13                    0.1891
544.39                    0.1944
544.66                    0.1898
544.93                    0.2025
545.19                    0.2014
545.46                    0.1997
545.72                    0.1972
545.99                    0.2013
546.25                    0.2073
546.52                    0.2105
546.78                    0.2039
547.05                    0.1882
547.31                    0.1747
547.58                    0.1756
547.84                    0.1844
548.11                    0.1845
548.37                    0.1904
548.64                    0.1961
548.91                    0.2139
549.17                    0.2102
549.44                    0.2175
549.70                    0.2138
549.97                    0.2172
550.23                    0.2114
550.50                    0.2122
550.76                    0.2118
551.03                    0.2096
551.29                    0.2059
551.56                    0.2045
551.82                    0.2030
552.09                    0.1963
552.36                    0.1852
552.62                    0.1809
552.89                    0.1849
553.15                    0.2043
553.42                    0.2084
553.68                    0.2180
553.95                    0.2223
554.21                    0.2434
554.48                    0.2479
554.74                    0.2417
555.01                    0.2295
555.27                    0.2225
555.54                    0.2162
555.80                    0.2203
556.07                    0.2336
556.34                    0.2447
556.60                    0.2456
556.87                    0.2580
557.13                    2.2210
557.40                    4.9584
557.66                    6.8554
557.93                    5.3502
558.19                    2.6112
558.46                    0.6904
558.72                    0.2375
558.99                    0.2315
559.25                    0.2266
559.52                    0.2156
559.78                    0.2156
560.05                    0.2326
560.32                    0.2427
560.58                    0.2482
560.85                    0.2249
561.11                    0.1987
561.38                    0.1987
561.64                    0.2186
561.91                    0.2516
562.17                    0.2629
562.44                    0.2592
562.70                    0.2336
562.97                    0.2107
563.23                    0.1951
563.50                    0.2017
563.76                    0.2101
564.03                    0.2151
564.30                    0.2242
564.56                    0.2359
564.83                    0.2339
565.09                    0.2169
565.36                    0.1971
565.62                    0.1966
565.89                    0.2033
566.15                    0.2134
566.42                    0.2264
566.68                    0.2358
566.95                    0.2301
567.21                    0.2233
567.48                    0.2184
567.74                    0.2268
568.01                    0.2159
568.28                    0.2101
568.54                    0.1948
568.81                    0.2062
569.07                    0.2207
569.34                    0.2365
569.60                    0.2485
569.87                    0.2369
570.13                    0.2359
570.40                    0.2183
570.66                    0.2222
570.93                    0.2116
571.19                    0.2138
571.46                    0.2173
571.72                    0.2345
571.99                    0.2431
572.26                    0.2464
572.52                    0.2331
572.79                    0.2312
573.05                    0.2266
573.32                    0.2280
573.58                    0.2238
573.85                    0.2182
574.11                    0.2249
574.38                    0.2281
574.64                    0.2312
574.91                    0.2177
575.17                    0.2125
575.44                    0.2069
575.70                    0.2177
575.97                    0.2087
576.24                    0.2104
576.50                    0.2101
576.77                    0.2213
577.03                    0.2232
577.30                    0.2189
577.56                    0.2142
577.83                    0.2143
578.09                    0.2112
578.36                    0.2115
578.62                    0.2020
578.89                    0.2005
579.15                    0.2024
579.42                    0.2046
579.68                    0.2122
579.95                    0.2152
580.22                    0.2302
580.48                    0.2311
580.75                    0.2240
581.01                    0.2124
581.28                    0.2134
581.54                    0.2200
581.81                    0.2373
582.07                    0.2486
582.34                    0.2520
582.60                    0.2373
582.87                    0.2360
583.13                    0.2352
583.40                    0.2351
583.67                    0.2336
583.93                    0.2482
584.20                    0.3341
584.46                    0.3259
584.73                    0.3149
584.99                    0.2309
585.26                    0.2384
585.52                    0.2281
585.79                    0.2353
586.05                    0.2714
586.32                    0.3526
586.58                    0.3969
586.85                    0.3884
587.11                    0.3312
587.38                    0.3101
587.65                    0.2936
587.91                    0.2923
588.18                    0.3052
588.44                    0.7828
588.71                    1.3060
588.97                    1.7274
589.24                    1.5452
589.50                    1.1999
589.77                    0.7914
590.03                    0.5095
590.30                    0.3485
590.56                    0.3286
590.83                    0.3400
591.09                    0.3730
591.36                    0.3957
591.63                    0.3887
591.89                    0.3619
592.16                    0.3382
592.42                    0.3284
592.69                    0.3444
592.95                    0.3855
593.22                    0.4271
593.48                    0.3864
593.75                    0.3190
594.01                    0.2713
594.28                    0.2908
594.54                    0.3069
594.81                    0.3427
595.07                    0.3727
595.34                    0.3750
595.61                    0.3345
595.87                    0.2801
596.14                    0.2618
596.40                    0.2615
596.67                    0.2870
596.93                    0.3121
597.20                    0.3365
597.46                    0.3559
597.73                    0.3486
597.99                    0.3193
598.26                    0.2785
598.52                    0.2686
598.79                    0.2818
599.05                    0.2778
599.32                    0.2685
599.59                    0.2638
599.85                    0.2709
600.12                    0.2871
600.38                    0.2785
600.65                    0.2702
600.91                    0.2474
601.18                    0.2363
601.44                    0.2249
601.71                    0.2186
601.97                    0.2122
602.24                    0.2101
602.50                    0.2200
602.77                    0.2317
603.03                    0.2363
603.30                    0.2304
603.57                    0.2228
603.83                    0.2190
604.10                    0.2181
604.36                    0.2177
604.63                    0.2115
604.89                    0.2003
605.16                    0.1882
605.42                    0.1807
605.69                    0.1818
605.95                    0.1882
606.22                    0.1989
606.48                    0.2036
606.75                    0.1951
607.01                    0.1926
607.28                    0.1853
607.55                    0.1941
607.81                    0.1842
608.08                    0.1873
608.34                    0.1811
608.61                    0.1819
608.87                    0.1824
609.14                    0.1825
609.40                    0.1921
609.67                    0.1948
609.93                    0.1965
610.20                    0.1921
610.46                    0.1948
610.73                    0.1930
611.00                    0.1908
611.26                    0.1779
611.53                    0.1768
611.79                    0.1652
612.06                    0.1620
612.32                    0.1652
612.59                    0.1699
612.85                    0.1720
613.12                    0.1618
613.38                    0.1887
613.65                    0.2148
613.91                    0.2406
614.18                    0.2260
614.44                    0.2165
614.71                    0.1935
614.98                    0.1886
615.24                    0.2114
615.51                    0.2526
615.77                    0.2563
616.04                    0.2158
616.30                    0.1914
616.57                    0.2128
616.83                    0.2449
617.10                    0.5468
617.36                    0.5365
617.63                    0.5147
617.89                    0.1949
618.16                    0.1747
618.42                    0.1616
618.69                    0.1585
618.96                    0.1559
619.22                    0.1629
619.49                    0.1642
619.75                    0.1904
620.02                    0.2175
620.28                    0.2300
620.55                    0.2079
620.81                    0.1865
621.08                    0.1852
621.34                    0.1942
621.61                    0.2188
621.87                    0.2466
622.14                    0.2459
622.40                    0.2122
622.67                    0.1892
622.94                    0.2478
623.20                    0.4059
623.47                    0.5338
623.73                    0.5631
624.00                    0.4614
624.26                    0.3591
624.53                    0.2651
624.79                    0.2183
625.06                    0.2275
625.32                    0.3263
625.59                    0.4401
625.85                    0.4740
626.12                    0.4201
626.38                    0.3478
626.65                    0.3044
626.92                    0.2736
627.18                    0.2492
627.45                    0.2446
627.71                    0.2507
627.98                    0.2637
628.24                    0.3104
628.51                    0.3916
628.77                    0.4226
629.04                    0.4168
629.30                    1.5415
629.57                    7.1510
629.83                   12.5405
630.10                   15.3369
630.36                    9.7766
630.63                    4.4202
630.90                    0.4006
631.16                    0.2869
631.43                    0.2064
631.69                    0.2453
631.96                    0.3065
632.22                    0.3161
632.49                    0.3737
632.75                    0.4057
633.02                    0.4576
633.28                    0.3586
633.55                    0.2515
633.81                    0.1727
634.08                    0.1676
634.34                    0.2063
634.61                    0.2288
634.88                    0.2569
635.14                    0.2953
635.41                    0.3654
635.67                    0.9286
635.94                    2.5307
636.20                    4.2213
636.47                    4.7788
636.73                    3.1161
637.00                    1.3239
637.26                    0.1843
637.53                    0.1949
637.79                    0.2132
638.06                    0.2273
638.33                    0.2424
638.59                    0.2441
638.86                    0.2219
639.12                    0.1824
639.39                    0.1577
639.65                    0.1467
639.92                    0.1541
640.18                    0.1512
640.45                    0.1610
640.71                    0.1543
640.98                    0.1580
641.24                    0.1548
641.51                    0.1655
641.77                    0.1812
642.04                    0.1929
642.31                    0.1851
642.57                    0.1651
642.84                    0.1521
643.10                    0.1483
643.37                    0.1402
643.63                    0.1268
643.90                    0.1216
644.16                    0.1257
644.43                    0.1366
644.69                    0.1473
644.96                    0.1641
645.22                    0.1927
645.49                    0.2024
645.75                    0.2093
646.02                    0.2684
646.29                    0.3577
646.55                    0.4377
646.82                    0.4267
647.08                    0.3508
647.35                    0.2767
647.61                    0.2100
647.88                    0.1975
648.14                    0.1793
648.41                    0.1775
648.67                    0.1599
648.94                    0.1500
649.20                    0.1506
649.47                    0.1561
649.73                    0.1646
650.00                    0.1685
650.27                    0.1954
650.53                    0.1888
650.80                    0.1774
651.06                    0.1485
651.33                    0.1548
651.59                    0.1503
651.86                    0.1456
652.12                    0.1492
652.39                    0.1574
652.65                    0.1599
652.92                    0.1599
653.18                    0.1585
653.45                    0.1652
653.71                    0.1694
653.98                    0.1783
654.25                    0.1806
654.51                    0.1693
654.78                    0.1735
655.04                    0.2300
655.31                    0.2395
655.57                    0.2395
655.84                    0.1825
656.10                    0.1737
656.37                    0.1565
656.63                    0.2234
656.90                    0.2334
657.16                    0.2405
657.43                    0.2029
657.69                    0.1929
657.96                    0.1927
658.23                    0.1594
658.49                    0.1656
658.76                    0.1602
659.02                    0.1575
659.29                    0.1571
659.55                    0.1575
659.82                    0.1579
660.08                    0.1594
660.35                    0.1599
660.61                    0.1621
660.88                    0.1561
661.14                    0.1693
661.41                    0.1680
661.67                    0.1699
661.94                    0.1576
662.21                    0.1597
662.47                    0.1788
662.74                    0.1987
663.00                    0.1978
663.27                    0.1819
663.53                    0.1719
663.80                    0.1721
664.06                    0.1686
664.33                    0.1599
664.59                    0.1619
664.86                    0.1627
665.12                    0.1659
665.39                    0.1694
665.66                    0.1724
665.92                    0.1703
666.19                    0.1661
666.45                    0.1705
666.72                    0.1707
666.98                    0.1712
667.25                    0.1647
667.51                    0.1652
667.78                    0.1675
668.04                    0.1679
668.31                    0.1683
668.57                    0.1669
668.84                    0.1673
669.10                    0.1677
669.37                    0.1683
669.64                    0.1785
669.90                    0.1815
670.17                    0.1817
670.43                    0.1871
670.70                    0.2049
670.96                    0.2333
671.23                    0.2289
671.49                    0.2243
671.76                    0.2121
672.02                    0.2057
672.29                    0.2024
672.55                    0.1914
672.82                    0.1888
673.08                    0.1779
673.35                    0.2054
673.62                    0.2058
673.88                    0.2062
674.15                    0.1769
674.41                    0.1787
674.68                    0.1801
674.94                    0.1806
675.21                    0.1799
675.47                    0.1822
675.74                    0.1815
676.00                    0.1851
676.27                    0.1845
676.53                    0.1847
676.80                    0.1938
677.06                    0.2102
677.33                    0.2107
677.60                    0.2007
677.86                    0.1832
678.13                    0.1835
678.39                    0.1821
678.66                    0.1826
678.92                    0.2037
679.19                    0.2043
679.45                    0.2086
679.72                    0.2076
679.98                    0.2078
680.25                    0.2042
680.51                    0.1853
680.78                    0.1857
681.04                    0.1861
681.31                    0.1865
681.58                    0.1870
681.84                    0.1874
682.11                    0.1878
682.37                    0.1882
682.64                    0.2079
682.90                    0.2134
683.17                    0.5540
683.43                    0.5354
683.70                    0.5309
683.96                    0.2055
684.23                    0.2059
684.49                    0.2063
684.76                    0.1920
685.02                    0.1924
685.29                    0.1928
685.56                    0.1932
685.82                    0.1936
686.09                    0.6962
686.35                    0.6970
686.62                    0.6980
686.88                    0.2059
687.15                    0.2063
687.41                    0.2067
687.68                    0.1964
687.94                    0.2148
688.21                    0.2152
688.47                    0.2167
688.74                    0.1990
689.00                    0.2025
689.27                    0.2019
689.54                    0.2053
689.80                    0.4614
690.07                    0.4623
690.33                    0.4655
690.60                    0.2060
690.86                    0.2064
691.13                    0.2015
691.39                    0.2019
691.66                    0.2146
691.92                    0.2150
692.19                    0.2154
692.45                    0.2035
692.72                    0.2039
692.99                    0.2042
693.25                    0.2130
693.52                    0.2225
693.78                    0.2363
694.05                    0.2298
694.31                    0.2225
694.58                    0.2095
694.84                    0.2223
695.11                    0.2277
695.37                    0.2474
695.64                    0.2628
695.90                    0.2729
696.17                    0.2589
696.43                    0.2331
696.70                    0.2804
696.97                    0.2860
697.23                    0.2943
697.50                    0.2356
697.76                    0.2269
698.03                    0.2163
698.29                    0.2123
698.56                    0.2196
698.82                    0.2223
699.09                    0.2227
699.35                    0.2232
699.62                    0.2254
699.88                    0.2384
700.15                    0.2342
700.41                    0.2303
700.68                    0.2180
700.95                    0.2148
701.21                    0.2152
701.48                    0.2155
701.74                    0.2158
702.01                    0.2161
702.27                    0.2164
702.54                    0.2171
702.80                    0.2207
703.07                    0.2225
703.33                    0.2224
703.60                    0.2237
703.86                    0.2649
704.13                    0.2802
704.39                    0.2765
704.66                    0.2358
704.93                    0.2331
705.19                    0.2331
705.46                    0.2320
705.72                    0.2330
705.99                    0.2459
706.25                    0.2462
706.52                    0.2370
706.78                    0.2491
707.05                    0.2696
707.31                    0.2668
707.58                    0.2523
707.84                    0.2414
708.11                    0.2417
708.37                    0.2324
708.64                    0.2241
708.91                    0.2247
709.17                    0.2250
709.44                    0.2317
709.70                    0.2333
709.97                    0.2336
710.23                    0.2272
710.50                    0.2548
710.76                    0.2656
711.03                    0.2661
711.29                    0.2375
711.56                    0.2273
711.82                    0.2275
712.09                    0.2278
712.35                    0.2281
712.62                    0.2285
712.89                    0.2345
713.15                    0.2348
713.42                    0.2351
713.68                    0.2400
713.95                    0.2404
714.21                    0.2407
714.48                    0.2308
714.74                    0.2311
715.01                    0.2314
715.27                    0.2348
715.54                    0.2441
715.80                    0.2444
716.07                    0.2417
716.33                    0.2376
716.60                    0.2380
716.87                    0.2383
717.13                    0.2342
717.40                    0.2345
717.66                    0.2384
717.93                    0.2387
718.19                    0.2391
718.46                    0.2359
718.72                    0.2363
718.99                    0.2366
719.25                    0.2370
719.52                    0.2374
719.78                    0.2377
720.05                    0.2381
720.32                    0.2385
720.58                    0.2389
720.85                    0.2393
721.11                    0.2397
721.38                    0.2402
721.64                    0.2406
721.91                    0.2410
722.17                    0.2436
722.44                    0.2440
722.70                    0.2466
722.97                    0.2449
723.23                    0.2453
723.50                    0.2435
723.76                    0.3585
724.03                    0.3593
724.30                    0.4564
724.56                    0.3542
724.83                    0.3576
725.09                    0.2611
725.36                    0.2533
725.62                    0.2509
725.89                    0.2513
726.15                    0.2476
726.42                    0.2480
726.68                    0.2566
726.95                    0.2571
727.21                    0.3514
727.48                    0.3438
727.74                    0.3444
728.01                    0.2506
728.28                    0.2573
728.54                    0.2578
728.81                    0.2605
729.07                    0.2565
729.34                    0.4370
729.60                    0.4354
729.87                    0.4343
730.13                    0.2816
730.40                    0.2826
730.66                    0.2831
730.93                    0.2828
731.19                    0.2826
731.46                    0.3108
731.72                    0.3176
731.99                    0.3182
732.26                    0.2908
732.52                    0.2578
732.79                    0.2618
733.05                    0.2622
733.32                    0.2627
733.58                    0.2594
733.85                    2.0017
734.11                    2.0185
734.38                    2.0217
734.64                    0.2800
734.91                    0.2678
735.17                    0.2682
735.44                    0.2781
735.70                    0.2776
735.97                    0.2836
736.24                    0.2693
736.50                    0.2757
736.77                    0.2705
737.03                    0.2907
737.30                    0.2877
737.56                    0.3065
737.83                    0.2913
738.09                    0.3118
738.36                    0.2941
738.62                    0.2909
738.89                    0.2690
739.15                    0.2692
739.42                    0.2691
739.68                    0.2737
739.95                    0.2819
740.22                    0.2825
740.48                    0.2790
740.75                    0.2813
741.01                    0.3185
741.28                    0.3207
741.54                    0.3425
741.81                    0.3057
742.07                    0.3127
742.34                    0.2817
742.60                    0.3057
742.87                    0.2970
743.13                    0.3054
743.40                    0.2822
743.66                    0.2989
743.93                    0.2962
744.20                    0.2991
744.46                    0.2832
744.73                    0.2835
744.99                    0.2950
745.26                    0.2954
745.52                    0.2925
745.79                    0.2931
746.05                    0.2956
746.32                    0.3076
746.58                    0.3057
746.85                    0.4942
747.11                    0.5244
747.38                    0.5141
747.64                    0.4241
747.91                    0.3959
748.18                    0.4175
748.44                    0.3202
748.71                    0.3133
748.97                    0.2919
749.24                    0.2933
749.50                    0.3014
749.77                    0.3203
750.03                    0.3338
750.30                    0.3209
750.56                    0.3201
750.83                    0.3906
751.09                    0.3936
751.36                    0.4301
751.63                    0.3498
751.89                    0.3505
752.16                    0.6784
752.42                    0.6787
752.69                    0.6865
752.95                    0.3329
753.22                    0.3499
753.48                    0.3484
753.75                    0.3762
754.01                    0.3722
754.28                    0.3665
754.54                    0.3122
754.81                    0.3206
755.07                    0.3591
755.34                    0.3679
755.61                    0.3446
755.87                    0.3108
756.14                    0.3214
756.40                    0.3345
756.67                    0.3307
756.93                    0.9633
757.20                    1.0369
757.46                    1.0362
757.73                    0.3884
757.99                    0.3088
758.26                    0.3172
758.52                    0.3138
758.79                    0.3077
759.05                    0.3050
759.32                    0.3056
759.59                    0.5020
759.85                    0.4980
760.12                    0.4985
760.38                    0.3031
760.65                    0.3037
760.91                    0.3043
761.18                    0.3131
761.44                    0.3137
761.71                    0.3258
761.97                    0.3371
762.24                    0.3377
762.50                    0.3286
762.77                    0.3103
763.03                    0.3183
763.30                    0.3172
763.57                    0.3193
763.83                    0.3125
764.10                    0.3131
764.36                    0.3410
764.63                    0.3417
764.89                    0.3423
765.16                    0.3141
765.42                    0.3148
765.69                    0.3154
765.95                    0.5172
766.22                    0.5180
766.48                    0.5188
766.75                    0.3180
767.01                    0.3227
767.28                    0.3234
767.55                    0.3240
767.81                    0.3234
768.08                    0.3241
768.34                    0.3257
768.61                    0.3237
768.87                    0.3487
769.14                    0.3484
769.40                    0.3490
769.67                    0.3612
769.93                    0.3672
770.20                    0.3679
770.46                    0.3630
770.73                    0.3783
770.99                    2.1597
771.26                    2.4987
771.53                    2.8600
771.79                    1.1158
772.06                    0.7663
772.32                    0.7528
772.59                    0.7177
772.85                    0.7071
773.12                    0.3668
773.38                    0.3675
773.65                    0.3609
773.91                    0.3406
774.18                    0.3414
774.44                    0.3456
774.71                    0.3604
774.97                    0.3806
775.24                    0.3778
775.51                    0.3604
775.77                    0.3696
776.04                    0.3703
776.30                    0.3722
776.57                    0.3450
776.83                    0.3458
777.10                    0.4096
777.36                    0.4104
777.63                    0.4112
777.89                    0.3477
778.16                    0.3530
778.42                    0.3836
778.69                    0.3954
778.96                    0.4326
779.22                    0.4069
779.49                    0.3967
779.75                    0.3565
780.02                    0.3706
780.28                    0.3713
780.55                    0.7403
780.81                    0.7241
781.08                    0.7247
781.34                    0.3786
781.61                    0.4283
781.87                    4.2863
782.14                    4.2640
782.40                    4.2137
782.67                    0.3684
782.94                    0.3692
783.20                    0.3700
783.47                    0.3649
783.73                    0.3657
784.00                    0.3665
784.26                    0.3665
784.53                    0.3674
784.79                    0.3739
785.06                    3.2173
785.32                    3.2165
785.59                    3.2100
785.85                    0.3716
786.12                    0.3724
786.38                    0.3732
786.65                    0.3740
786.92                    0.3749
787.18                    0.3757
787.45                    0.3766
787.71                    0.3775
787.98                    0.3783
788.24                    0.3792
788.51                    0.3888
788.77                    0.4782
789.04                    0.4792
789.30                    0.4714
789.57                    0.3837
789.83                    0.3846
790.10                    0.3855
790.36                    0.3865
790.63                    0.3874
790.90                    0.3902
791.16                    0.3911
791.43                    0.3920
791.69                    0.4235
791.96                    0.4245
792.22                    0.4254
792.49                    0.3939
792.75                    0.4199
793.02                    0.4209
793.28                    0.4219
793.55                    0.3978
793.81                    0.3987
794.08                    0.4003
794.34                    0.4384
794.61                    0.4649
794.88                    0.4652
795.14                    0.4343
795.41                    0.4097
795.67                    0.4108
795.94                    0.4066
796.20                    3.0646
796.47                    3.0663
796.73                    3.0681
797.00                    0.4107
797.26                    0.4163
797.53                    0.4174
797.79                    0.4184
798.06                    0.4149
798.32                    0.4159
798.59                    0.4170
798.86                    0.4270
799.12                    0.4537
799.39                    0.4548
799.65                    0.4469
799.92                    0.4237
800.18                    0.4295
800.45                    0.4307
800.71                    0.4304
800.98                    0.4269
801.24                    0.4967
801.51                    0.4979
801.77                    0.6114
802.04                    0.5527
802.30                    2.0811
802.57                    2.0732
802.84                    2.0687
803.10                    0.5417
803.37                    0.4431
803.63                    0.4521
803.90                    0.4485
804.16                    0.4485
804.43                    0.4418
804.69                    0.4820
804.96                    0.7042
805.22                    0.7187
805.49                    0.7014
805.75                    0.5153
806.02                    0.5037
806.29                    0.4967
806.55                    0.4926
806.82                    0.5257
807.08                    0.5150
807.35                    0.5116
807.61                    0.5124
807.88                    0.5544
808.14                    0.6236
808.41                    0.5950
808.67                    0.5556
808.94                    0.4642
809.20                    0.4671
809.47                    0.4832
809.73                    0.4847
810.00                    0.8149
810.27                    0.8013
810.53                    0.8399
810.80                    0.5141
811.06                    0.5309
811.33                    0.5013
811.59                    0.5110
811.86                    0.5193
812.12                    0.5165
812.39                    0.5518
812.65                    0.5381
812.92                    0.5630
813.18                    0.5225
813.45                    0.5249
813.71                    0.5279
813.98                    0.5385
814.25                    0.5407
814.51                    0.5751
814.78                    0.7682
815.04                    0.7660
815.31                    0.7339
815.57                    0.5586
815.84                    0.5542
816.10                    0.5313
816.37                    0.6079
816.63                    0.6571
816.90                    0.6904
817.16                    0.5903
817.43                    0.5459
817.69                    0.5297
817.96                    0.5338
818.23                    0.5361
818.49                    0.6385
818.76                    0.6661
819.02                    0.6974
819.29                    0.6789
819.55                    0.6464
819.82                    0.6149
820.08                    0.5178
820.35                    0.5191
820.61                    0.5396
820.88                    0.5617
821.14                    0.5728
821.41                    0.5576
821.67                    0.5451
821.94                    0.5637
822.21                    0.5682
822.47                    0.5745
822.74                    0.5752
823.00                    0.5720
823.27                    0.5829
823.53                    0.5590
823.80                    0.5588
824.06                    0.5373
824.33                    0.5852
824.59                    0.5890
824.86                    0.6152
825.12                    0.5683
825.39                    0.5933
825.65                    0.6163
825.92                    0.6712
826.19                    0.7252
826.45                    0.6952
826.72                    0.6430
826.98                    0.6070
827.25                    0.5932
827.51                    0.8036
827.78                    0.7636
828.04                    0.7652
828.31                    0.5669
828.57                    3.4894
828.84                    3.5562
829.10                    3.5676
829.37                    1.2729
829.63                    2.7449
829.90                    2.7654
830.17                    2.1332
830.43                    0.6370
830.70                    0.6076
830.96                    0.6091
831.23                    0.5951
831.49                    0.6544
831.76                    0.6561
832.02                    0.6354
832.29                    0.5788
832.55                    0.5802
832.82                    0.5817
833.08                    0.5832
833.35                    0.5848
833.62                    0.6175
833.88                    0.6767
834.15                    1.5449
834.41                    1.5307
834.68                    1.5675
834.94                    0.7009
835.21                    0.7020
835.47                    0.6113
835.74                    0.6220
836.00                    0.6095
836.27                    0.6751
836.53                    0.6678
836.80                    0.6696
837.06                    0.6308
837.33                    0.6325
837.60                    0.6352
837.86                    0.6132
838.13                    0.7038
838.39                    0.7080
838.66                    0.7099
838.92                    0.6223
839.19                    0.6231
839.45                    0.6481
839.72                    0.6973
839.98                    0.6969
840.25                    0.6752
840.51                    0.7814
840.78                    0.8440
841.04                    0.8480
841.31                    0.7667
841.58                    0.7196
841.84                    0.7497
842.11                    0.7470
842.37                    0.8008
842.64                    0.8801
842.90                    0.8293
843.17                    0.8537
843.43                    0.7726
843.70                    0.7705
843.96                    0.6895
844.23                    0.6672
844.49                    0.6628
844.76                    0.6616
845.02                    0.6913
845.29                    0.6923
845.56                    0.6944
845.82                    0.6686
846.09                    0.6706
846.35                    0.6726
846.62                    0.7101
846.88                    0.7131
847.15                    0.7151
847.41                    0.6816
847.68                    0.6827
847.94                    0.6847
848.21                    0.6868
848.47                    0.6889
848.74                    0.6910
849.00                    0.7015
849.27                    0.7036
849.54                    0.7657
849.80                    0.7595
850.07                    0.7794
850.33                    0.7486
850.60                    0.7536
850.86                    0.7381
851.13                    0.7613
851.39                    0.7628
851.66                    0.7680
851.92                    0.7558
852.19                    0.7962
852.45                    0.7954
852.72                    0.7636
852.98                    0.7255
853.25                    0.7277
853.52                    0.7299
853.78                    0.7322
854.05                    0.7344
854.31                    0.7367
854.58                    1.1703
854.84                    1.1730
855.11                    1.1756
855.37                    0.7454
855.64                    0.7477
855.90                    0.7500
856.17                    0.7523
856.43                    0.7546
856.70                    0.7569
856.96                    0.7592
857.23                    0.7616
857.50                    0.7639
857.76                    0.7663
858.03                    0.7686
858.29                    0.7710
858.56                    0.9584
858.82                    0.9611
859.09                    0.9637
859.35                    0.8203
859.62                    0.8228
859.88                    0.8252
860.15                    0.7877
860.41                    0.7902
860.68                    0.7926
860.95                    0.7950
861.21                    0.7975
861.48                    0.7999
861.74                    0.8127
862.01                    1.2240
862.27                    1.2273
862.54                    2.0860
862.80                    1.6796
863.07                    1.9221
863.33                    1.0561
863.60                    1.0590
863.86                    0.8221
864.13                    0.8246
864.39                    1.1396
864.66                    1.2312
864.93                    1.2341
865.19                    1.2510
865.46                    1.1650
865.72                    1.1679
865.99                    0.8425
866.25                    1.6200
866.52                    1.6234
866.78                    2.6107
867.05                    1.8378
867.31                    2.5576
867.58                    1.5871
867.84                    1.8434
868.11                    1.1286
868.37                    1.1198
868.64                    0.8689
868.91                    0.9696
869.17                    0.9725
869.44                    0.9754
869.70                    0.8856
869.97                    0.8883
870.23                    0.8909
870.50                    0.8897
870.76                    0.8925
871.03                    0.8952
871.29                    0.8957
871.56                    0.8985
871.82                    0.9012
872.09                    0.9040
872.35                    0.9068
872.62                    0.9096
872.89                    0.9125
873.15                    0.9153
873.42                    0.9181
873.68                    0.9210
873.95                    0.9238
874.21                    0.9944
874.48                    0.9974
874.74                    1.0468
875.01                    0.9855
875.27                    0.9885
875.54                    1.0460
875.80                    1.5649
876.07                    1.5962
876.33                    3.1907
876.60                    2.7684
876.87                    2.7436
877.13                    1.0534
877.40                    0.9638
877.66                    0.9669
877.93                    0.9698
878.19                    0.9748
878.46                    1.0084
878.72                    1.0114
878.99                    1.0100
879.25                    0.9822
879.52                    0.9852
879.78                    0.9882
880.05                    0.9911
880.31                    0.9944
880.58                    0.9975
880.85                    1.0006
881.11                    1.0037
881.38                    1.0068
881.64                    1.0099
881.91                    1.0130
882.17                    1.0475
882.44                   13.9556
882.70                   13.9869
882.97                   13.9929
883.23                    1.0461
883.50                    1.0728
883.76                    1.0639
884.03                    1.0672
884.29                    1.0415
884.56                    1.0447
884.83                    1.0921
885.09                    1.0957
885.36                    1.0988
885.62                    1.0576
885.89                    1.0604
886.15                    1.0637
886.42                    1.1773
886.68                    1.1807
886.95                    1.1842
887.21                    1.0769
887.48                    1.0802
887.74                    1.0835
888.01                    1.0868
888.27                    3.6630
888.54                    3.6712
888.81                    3.6794
889.07                    1.1004
889.34                    1.1038
889.60                    1.1072
889.87                    1.1106
890.13                    1.1169
890.40                    1.1203
890.66                    1.1238
890.93                    1.1243
891.19                    1.1278
891.46                    1.1313
891.72                    1.6521
891.99                    1.6566
892.26                    1.6611
892.52                    1.1453
892.79                    1.1488
893.05                    1.1522
893.32                    1.1555
893.58                    1.1589
893.85                    1.1625
894.11                    2.3139
894.38                    2.3198
894.64                    2.3258
894.91                    1.1999
895.17                    1.2036
895.44                    1.2073
895.70                    1.2013
895.97                    1.2050
896.24                    1.2086
896.50                    1.1987
896.77                    1.2024
897.03                    1.2061
897.30                    1.2549
897.56                    1.2655
897.83                    1.4007
898.09                    1.3668
898.36                    1.3644
898.62                    1.2517
898.89                    1.2482
899.15                    1.2516
899.42                    1.2399
899.68                    1.2437
899.95                    1.2957
900.22                    1.3239
900.48                    1.3280
900.75                    1.2831
901.01                    1.3213
901.28                    1.3308
901.54                    1.3350
901.81                    1.2835
902.07                    1.2821
902.34                    1.2862
902.60                    1.3722
902.87                    1.3765
903.13                    1.4011
903.40                    1.3374
903.66                    1.4346
903.93                    1.4186
904.20                    1.5329
904.46                    1.4527
904.73                    2.4124
904.99                    2.3185
905.26                    2.3583
905.52                    1.3999
905.79                    1.3771
906.05                    1.3405
906.32                    1.3447
906.58                    1.3489
906.85                    1.3531
907.11                    1.3574
907.38                    1.3616
907.64                    1.3659
907.91                    1.3702
908.18                    1.4743
908.44                    1.4787
908.71                    1.5366
908.97                    1.9759
909.24                    2.0070
909.50                    1.9598
909.77                    1.4454
910.03                    1.7172
910.30                    1.7230
910.56                    1.7076
910.83                    1.4175
911.09                    1.4465
911.36                    1.4640
911.62                    1.4686
911.89                    1.4483
912.16                    1.4991
912.42                    1.6769
912.69                    1.6824
912.95                    1.6277
913.22                    1.5041
913.48                    1.5088
913.75                    1.5311
914.01                    1.5598
914.28                    1.5696
914.54                    1.6041
914.81                    1.5410
915.07                    1.6169
915.34                    1.5741
915.60                    1.6498
915.87                    4.9805
916.14                    5.1684
916.40                    5.1184
916.67                    1.6857
916.93                    1.5632
917.20                    1.5668
917.46                    1.5931
917.73                    1.6489
917.99                    1.6885
918.26                    1.7970
918.52                    1.9485
918.79                    2.0091
919.05                    1.8978
919.32                    1.7080
919.59                    1.7875
919.85                    1.8639
920.00                    3.1782
920.50                    3.2047
921.00                    3.1979
921.50                    3.1802
922.00                    3.1788
922.50                    3.1980
923.00                    3.1975
923.50                    3.1812
924.00                    3.1657
924.50                    3.1568
925.00                    3.1536
925.50                    3.1648
926.00                    3.1674
926.50                    3.1671
927.00                    3.1744
927.50                    3.1405
928.00                    3.0764
928.50                    3.0525
929.00                    3.0479
929.50                    3.0037
930.00                    2.9916
930.50                    3.9598
931.00                    5.9038
931.50                    6.4418
932.00                    4.9826
932.50                    5.2659
933.00                    4.0984
933.50                    3.0042
934.00                    3.0245
934.50                    2.5054
935.00                    2.4020
935.50                    2.4089
936.00                    2.3060
936.50                    2.4530
937.00                    3.0253
937.50                    5.5259
938.00                    7.2588
938.50                    5.5344
939.00                    4.6363
939.50                    3.9267
940.00                    3.3799
940.50                    3.6590
941.00                    3.1803
941.50                    3.1092
942.00                    3.8049
942.50                    3.7653
943.00                    2.7828
943.50                    3.6485
944.00                    5.1923
944.50                    4.5183
945.00                    3.5035
945.50                    3.3217
946.00                    3.7808
946.50                    3.3223
947.00                    2.9281
947.50                    4.9644
948.00                    6.8836
948.50                    4.3826
949.00                    2.7865
949.50                    2.6255
950.00                    2.9732
950.50                    3.6706
951.00                    3.4888
951.50                    3.9349
952.00                    5.0984
952.50                    4.5452
953.00                    3.2049
953.50                    2.7828
954.00                    2.7463
954.50                    2.6452
955.00                    3.0752
955.50                    3.4891
956.00                    3.0936
956.50                    3.5915
957.00                    4.3700
957.50                    3.7377
958.00                    2.8207
958.50                    2.7241
959.00                    2.6574
959.50                    2.6358
960.00                    2.7602
960.50                    3.0135
961.00                    3.2421
961.50                    3.1784
962.00                    3.3423
962.50                    3.5253
963.00                    3.1837
963.50                    2.8836
964.00                    2.7945
964.50                    2.7812
965.00                    2.8530
965.50                    2.9976
966.00                    3.0519
966.50                    3.2041
967.00                    3.5469
967.50                    3.5600
968.00                    4.0267
968.50                    4.5982
969.00                    4.1227
969.50                    4.3913
970.00                    5.4298
970.50                    4.7927
971.00                    4.0370
971.50                    4.9322
972.00                    6.0626
972.50                    5.5287
973.00                    3.8007
973.50                    3.5290
974.00                    4.1360
974.50                    3.6265
975.00                    3.0285
975.50                    2.9238
976.00                    2.8811
976.50                    2.9031
977.00                    2.9512
977.50                    2.9681
978.00                    2.9422
978.50                    3.9290
979.00                    9.1197
979.50                   13.2008
980.00                    9.7998
980.50                    5.4729
981.00                    4.3360
981.50                    4.0708
982.00                    3.4978
982.50                    3.1232
983.00                    3.2413
983.50                    3.1248
984.00                    2.9954
984.50                    3.8712
985.00                    4.9675
985.50                    4.1910
986.00                    3.1373
986.50                    3.0754
987.00                    6.4484
987.50                    9.8791
988.00                    6.3508
988.50                    3.0239
989.00                    3.6262
989.50                    4.9249
990.00                    4.8782
990.50                    3.5780
991.00                    4.8664
991.50                    8.5226
992.00                    8.2326
992.50                    4.5892
993.00                    2.9553
993.50                    3.0275
994.00                    4.9005
994.50                    9.4185
995.00                   10.5285
995.50                    8.1736
996.00                    9.6293
996.50                    9.5931
997.00                    5.7210
997.50                    4.0486
998.00                    3.5146
998.50                    2.9753
999.00                    2.9384
999.50                    3.1452
1000.00                   3.6520
1000.50                   3.7804
1001.00                   7.6899
1001.50                  12.5117
1002.00                   8.8548
1002.50                   5.5104
1003.00                   5.5179
1003.50                   3.9736
1004.00                   3.4821
1004.50                   4.0171
1005.00                   3.5713
1005.50                   3.3077
1006.00                   4.1907
1006.50                   4.8220
1007.00                   4.3889
1007.50                   3.7990
1008.00                   5.6420
1008.50                   7.9472
1009.00                   5.4632
1009.50                   3.0494
1010.00                   3.8451
1010.50                   4.8499
1011.00                   4.1160
1011.50                   3.0825
1012.00                   5.0448
1012.50                   8.1991
1013.00                   6.9091
1013.50                   3.9568
1014.00                   3.0427
1014.50                   3.1622
1015.00                   4.2968
1015.50                   5.8090
1016.00                   5.6582
1016.50                   4.6212
1017.00                   8.0055
1017.50                  11.8708
1018.00                   8.1506
1018.50                   6.6891
1019.00                   9.8005
1019.50                   9.0201
1020.00                   6.3845
1020.50                   7.2576
1021.00                  11.4460
1021.50                  13.2440
1022.00                   7.5248
1022.50                   4.9332
1023.00                   7.6176
1023.50                   7.1898
1024.00                   4.2116
1024.50                   2.8402
1025.00                   2.8392
1025.50                   2.8372
1026.00                   2.8368
1026.50                   2.8804
1027.00                   3.1996
1027.50                   3.4439
1028.00                   4.5448
1028.50                  19.2679
1029.00                  33.2184
1029.50                  22.5527
1030.00                  12.1404
1030.50                   7.8103
1031.00                   5.4780
1031.50                   5.1329
1032.00                   3.5396
1032.50                   3.3387
1033.00                   3.7199
1033.50                   3.2898
1034.00                   3.0526
1034.50                   5.8950
1035.00                   8.9547
1035.50                   6.2596
1036.00                   3.2572
1036.50                   2.9010
1037.00                  11.5317
1037.50                  21.5000
1038.00                  12.9913
1038.50                   3.5212
1039.00                   3.0138
1039.50                   6.5437
1040.00                   9.8231
1040.50                   6.1032
1041.00                   2.8106
1041.50                  11.1925
1042.00                  21.7121
1042.50                  14.5136
1043.00                   4.5131
1043.50                   2.8723
1044.00                   2.7879
1044.50                   3.4556
1045.00                   6.2087
1045.50                   7.6300
1046.00                   4.7840
1046.50                   7.3052
1047.00                  14.1852
1047.50                  11.5056
1048.00                   4.7890
1048.50                   2.7528
1049.00                   2.7504
1049.50                   2.7573
1050.00                   2.7688
1050.50                   3.7105
1051.00                   5.2459
1051.50                   4.8011
1052.00                   4.7136
1052.50                   7.4275
1053.00                   7.7292
1053.50                   4.4555
1054.00                   2.7327
1054.50                   2.7310
1055.00                   2.7292
1055.50                   2.7274
1056.00                   2.7256
1056.50                   2.7282
1057.00                   3.2840
1057.50                   3.8943
1058.00                   3.5222
1058.50                   4.1010
1059.00                   4.8843
1059.50                   3.6739
1060.00                   2.7200
1060.50                   2.7169
1061.00                   2.7101
1061.50                   2.7056
1062.00                   2.7036
1062.50                   2.7014
1063.00                   2.6994
1063.50                   2.7296
1064.00                   2.9060
1064.50                   3.0288
1065.00                   3.1488
1065.50                   3.3323
1066.00                   3.0185
1066.50                   2.7006
1067.00                   2.6842
1067.50                   2.6809
1068.00                   2.7577
1068.50                   3.2668
1069.00                   3.9039
1069.50                   4.9051
1070.00                   6.0732
1070.50                   5.7871
1071.00                   7.5097
1071.50                   9.5517
1072.00                   7.4692
1072.50                  10.2092
1073.00                  15.2472
1073.50                  10.8699
1074.00                   6.5759
1074.50                   8.5901
1075.00                  14.2962
1075.50                  17.7016
1076.00                   9.2795
1076.50                   2.7012
1077.00                   5.3574
1077.50                   8.1519
1078.00                   5.4267
1078.50                   2.7254
1079.00                   2.6488
1079.50                   2.6534
1080.00                   2.6503
1080.50                   2.6500
1081.00                   2.6374
1081.50                   2.6249
1082.00                   2.6272
1082.50                   5.3620
1083.00                  27.0215
1083.50                  44.7260
1084.00                  29.9711
1084.50                  17.6151
1085.00                   9.9122
1085.50                   5.6569
1086.00                   7.5970
1086.50                   4.8953
1087.00                   2.7728
1087.50                   3.5359
1088.00                   4.0757
1088.50                   3.2530
1089.00                   3.3336
1089.50                   7.6283
1090.00                  10.7561
1090.50                   6.3787
1091.00                   2.7352
1091.50                   2.5954
1092.00                  13.8515
1092.50                  28.3281
1093.00                  19.6153
1093.50                   5.4680
1094.00                   2.6030
1094.50                   6.9207
1095.00                  12.4960
1095.50                   8.9507
1096.00                   3.5146
1096.50                   2.7020
1097.00                  17.3027
1097.50                  33.0216
1098.00                  18.0592
1098.50                   3.1435
1099.00                   2.5256
1099.50                   2.5006
1100.00                   2.8139
